# Trajectory from DORA mapping
# Format: id x y z qx qy qz qw

0 0.000000 0.000000 0.000000 0.000000 0.000000 0.000000 1.000000
1 0.249411 -0.000606 0.002005 -0.000301 -0.000229 0.000118 1.000000
2 0.498780 -0.000596 -0.003352 -0.000256 0.000352 0.000154 1.000000
3 0.749581 -0.000461 0.001914 -0.000297 0.000093 0.000086 1.000000
4 0.999124 0.000407 -0.000400 -0.000148 -0.000073 0.000029 1.000000
5 1.249076 0.000013 -0.001041 -0.000058 -0.000208 0.000059 1.000000
6 1.499633 -0.000187 -0.000506 -0.000267 0.000083 0.000044 1.000000
7 1.749489 -0.000578 0.000436 -0.000213 -0.000065 0.000073 1.000000
8 1.999274 -0.000263 0.003654 -0.000348 -0.000132 0.000027 1.000000
9 2.250304 0.000707 0.001554 -0.000443 -0.000027 0.000172 1.000000
10 2.497966 -0.000885 0.003969 -0.000119 0.000119 0.382695 0.923875
11 2.698091 0.199426 0.005153 -0.000327 0.000097 0.471836 0.881686
12 2.898304 0.499651 0.002696 -0.000384 0.000166 0.584815 0.811167
13 2.996361 0.800411 0.003452 -0.000334 0.000242 0.707128 0.707085
14 2.996356 1.200823 0.004810 -0.000364 0.000219 0.707140 0.707074
15 2.996786 1.601138 0.004882 -0.000354 0.000384 0.707168 0.707045
16 2.996936 2.000663 0.003873 -0.000377 0.000418 0.707131 0.707082
17 2.997143 2.401316 0.003272 -0.000365 0.000470 0.707208 0.707005
18 2.997349 2.801969 0.002672 -0.000365 0.000470 0.707208 0.707005
19 2.995685 3.089571 -0.005138 0.000146 0.000031 0.773736 0.633508
20 2.927146 3.445004 -0.007739 0.000784 0.000188 0.882258 0.470765
21 2.784447 3.654383 -0.005045 0.000138 0.000356 0.881986 0.471275
22 2.640286 3.866365 -0.002477 0.000069 0.000072 0.924108 0.382131
23 2.464163 4.042678 -0.000859 0.000105 0.000122 0.924136 0.382064
24 2.286585 4.219630 -0.001915 0.000094 0.000048 0.924119 0.382105
25 2.109129 4.396352 -0.002414 0.000316 -0.000008 0.924164 0.381996
26 1.932479 4.572634 0.001600 0.000206 0.000216 0.924175 0.381968
27 1.756289 4.749400 0.001275 0.000233 0.000132 0.924103 0.382143
28 1.579422 4.925796 0.001979 0.000218 0.000247 0.924093 0.382167
29 1.401243 5.101961 0.001618 0.000232 0.000223 0.924118 0.382107
30 1.226089 5.279086 0.001347 0.000379 0.000254 0.995202 0.097838
31 0.873072 5.348506 0.002518 -0.000467 -0.000113 -0.995083 0.099041
32 0.520376 5.275763 0.003074 -0.000302 0.000002 -0.923641 0.383259
33 0.237561 4.992411 0.004760 -0.000365 0.000093 -0.923637 0.383268
34 -0.044959 4.709097 0.004798 -0.000338 0.000079 -0.923658 0.383216
35 -0.327153 4.425941 0.004942 -0.000350 -0.000011 -0.923602 0.383352
36 -0.609161 4.142648 0.002562 -0.000361 0.000156 -0.923661 0.383211
37 -0.891345 3.859220 0.004320 -0.000377 0.000087 -0.923654 0.383227
38 -1.103171 3.647913 0.005318 -0.000450 0.000141 -0.923722 0.383063
