# Trajectory from mapping
# Format: id x y z qx qy qz qw

0 0.000000 0.000000 0.000000 0.000000 0.000000 0.000000 1.000000
1 0.502784 0.028059 -0.007694 0.002870 -0.000035 0.010159 0.999944
2 1.007118 0.041022 -0.008526 0.002285 -0.000324 0.021044 0.999776
3 1.511039 0.064907 -0.015869 0.003293 -0.000791 0.030768 0.999521
4 2.014567 0.083072 -0.016732 0.003483 -0.000787 0.041091 0.999149
5 2.527187 0.099192 -0.032190 0.005334 -0.001445 0.052050 0.998629
6 3.031254 0.111224 -0.029480 0.004928 -0.001629 0.062771 0.998014
7 3.540420 0.124728 -0.030204 0.004827 -0.002057 0.073383 0.997290
8 4.039910 0.145339 -0.019359 0.004631 -0.001373 0.082871 0.996549
9 4.536359 0.172573 -0.007249 0.004489 -0.000481 0.091782 0.995769
10 5.037758 0.198273 -0.010979 0.004958 -0.000552 0.100708 0.994903
11 5.548654 0.214938 -0.015158 0.004910 -0.000940 0.110257 0.993891
12 6.064119 0.222846 -0.022600 0.004395 -0.001658 0.120188 0.992740
13 6.578838 0.236924 -0.021990 0.004522 -0.001755 0.129765 0.991533
14 7.094668 0.242354 -0.012096 0.004003 -0.001578 0.139674 0.990188
15 7.617249 0.252305 -0.015494 0.004422 -0.001680 0.149401 0.988765
16 8.131001 0.269371 0.003028 0.004213 -0.000789 0.158366 0.987371
17 8.667426 0.264183 0.000213 0.003642 -0.001317 0.168692 0.985661
18 9.191261 0.276385 0.016689 0.003537 -0.000540 0.177925 0.984038
19 9.732144 0.277921 0.007364 0.003703 -0.000959 0.187772 0.982205
